! Reaction's Kinematics
! 14C + 2H -> 14C + 2H     or    2H(14C,14C)2H;       Reaction at the "middle" of the target
! Projectile Energy at the reaction place:  25.00 MeV/u;      Grazing angle:  CMS = 1.61 deg;    Lab = 0.16 deg
! Q reaction : -18.00 MeV  (Excitations 0.0+0.0 -> 18.0+0.0);     Plotted Energy option is "after reaction"
Angle of  14C [CMS-deg]	Fragment - 14C	Residual - 2H
0	23.5688   	1.01212   
0.09	23.5688   	1.01219   
0.18	23.5688   	1.01226   
0.27	23.5687   	1.01248   
0.36	23.5687   	1.0127    
0.45	23.5686   	1.01306   
0.54	23.5686   	1.01343   
0.63	23.5685   	1.01394   
0.72	23.5684   	1.01445   
0.81	23.5683   	1.0151    
0.9	23.5683   	1.01576   
0.99	23.5681   	1.01656   
1.08	23.568    	1.01736   
1.17	23.5679   	1.01831   
1.26	23.5678   	1.01926   
1.35	23.5676   	1.02035   
1.44	23.5674   	1.02144   
1.53	23.5673   	1.02268   
1.62	23.5671   	1.02392   
1.71	23.5669   	1.0253    
1.8	23.5667   	1.02669   
1.89	23.5665   	1.02822   
1.98	23.5662   	1.02975   
2.07	23.566    	1.03142   
2.16	23.5658   	1.0331    
2.25	23.5655   	1.03492   
2.34	23.5652   	1.03674   
2.43	23.565    	1.03871   
2.52	23.5647   	1.04068   
2.61	23.5644   	1.04279   
2.7	23.5641   	1.0449    
2.79	23.5637   	1.04716   
2.88	23.5634   	1.04942   
2.97	23.5631   	1.05182   
3.06	23.5627   	1.05422   
3.15	23.5624   	1.05677   
3.24	23.562    	1.05932   
3.33	23.5616   	1.06202   
3.42	23.5612   	1.06471   
3.51	23.5608   	1.06755   
3.6	23.5604   	1.07039   
3.69	23.56     	1.07338   
3.78	23.5595   	1.07636   
3.87	23.5591   	1.07949   
3.96	23.5586   	1.08263   
4.05	23.5582   	1.0859    
4.14	23.5577   	1.08918   
4.23	23.5572   	1.0926    
4.32	23.5567   	1.09602   
4.41	23.5562   	1.09959   
4.5	23.5557   	1.10316   
4.59	23.5551   	1.10687   
4.68	23.5546   	1.11058   
4.77	23.5541   	1.11444   
4.86	23.5535   	1.1183    
4.95	23.5529   	1.1223    
5.04	23.5524   	1.1263    
5.13	23.5518   	1.13045   
5.22	23.5512   	1.1346    
5.31	23.5505   	1.13889   
5.4	23.5499   	1.14318   
5.49	23.5493   	1.14762   
5.58	23.5487   	1.15206   
5.67	23.548    	1.15664   
5.76	23.5473   	1.16123   
5.85	23.5467   	1.16595   
5.94	23.546    	1.17068   
6.03	23.5453   	1.17556   
6.12	23.5446   	1.18043   
6.21	23.5438   	1.18545   
6.3	23.5431   	1.19047   
6.39	23.5424   	1.19563   
6.48	23.5416   	1.20079   
6.57	23.5409   	1.2061    
6.66	23.5401   	1.21141   
6.75	23.5393   	1.21686   
6.84	23.5385   	1.22231   
6.93	23.5377   	1.22791   
7.02	23.5369   	1.23351   
7.11	23.5361   	1.23925   
7.2	23.5353   	1.24499   
7.29	23.5344   	1.25088   
7.38	23.5336   	1.25676   
7.47	23.5327   	1.26279   
7.56	23.5319   	1.26883   
7.65	23.531    	1.275     
7.74	23.5301   	1.28118   
7.83	23.5292   	1.2875    
7.92	23.5283   	1.29382   
8.01	23.5273   	1.30028   
8.1	23.5264   	1.30675   
8.19	23.5255   	1.31335   
8.28	23.5245   	1.31996   
8.37	23.5235   	1.32671   
8.46	23.5226   	1.33347   
8.55	23.5216   	1.34036   
8.64	23.5206   	1.34726   
8.73	23.5196   	1.3543    
8.82	23.5185   	1.36134   
8.91	23.5175   	1.36853   
9	23.5165   	1.37571   
9.09	23.5154   	1.38304   
9.18	23.5144   	1.39037   
9.27	23.5133   	1.39784   
9.36	23.5122   	1.40532   
9.45	23.5111   	1.41293   
9.54	23.51     	1.42055   
9.63	23.5089   	1.42831   
9.72	23.5078   	1.43607   
9.81	23.5067   	1.44397   
9.9	23.5055   	1.45188   
9.99	23.5044   	1.45993   
10.08	23.5032   	1.46797   
10.17	23.502    	1.47616   
10.26	23.5009   	1.48436   
10.35	23.4997   	1.49269   
10.44	23.4985   	1.50102   
10.53	23.4972   	1.5095    
10.62	23.496    	1.51798   
10.71	23.4948   	1.5266    
10.8	23.4935   	1.53522   
10.89	23.4923   	1.54399   
10.98	23.491    	1.55275   
11.07	23.4897   	1.56166   
11.16	23.4885   	1.57057   
11.25	23.4872   	1.57962   
11.34	23.4859   	1.58867   
11.43	23.4845   	1.59786   
11.52	23.4832   	1.60705   
11.61	23.4819   	1.61639   
11.7	23.4805   	1.62572   
11.79	23.4792   	1.6352    
11.88	23.4778   	1.64468   
11.97	23.4764   	1.6543    
12.06	23.475    	1.66392   
12.15	23.4736   	1.67369   
12.24	23.4722   	1.68345   
12.33	23.4708   	1.69336   
12.42	23.4694   	1.70326   
12.51	23.4679   	1.71331   
12.6	23.4665   	1.72336   
12.69	23.465    	1.73355   
12.78	23.4636   	1.74374   
12.87	23.4621   	1.75407   
12.96	23.4606   	1.76441   
13.05	23.4591   	1.77488   
13.14	23.4576   	1.78536   
13.23	23.456    	1.79597   
13.32	23.4545   	1.80659   
13.41	23.453    	1.81735   
13.5	23.4514   	1.82811   
13.59	23.4498   	1.83901   
13.68	23.4483   	1.84991   
13.77	23.4467   	1.86095   
13.86	23.4451   	1.87199   
13.95	23.4435   	1.88318   
14.04	23.4419   	1.89436   
14.13	23.4403   	1.90569   
14.22	23.4386   	1.91701   
14.31	23.437    	1.92848   
14.4	23.4353   	1.93994   
14.49	23.4337   	1.95155   
14.58	23.432    	1.96316   
14.67	23.4303   	1.9749    
14.76	23.4286   	1.98665   
14.85	23.4269   	1.99854   
14.94	23.4252   	2.01043   
15.03	23.4235   	2.02246   
15.12	23.4217   	2.03449   
15.21	23.42     	2.04666   
15.3	23.4182   	2.05883   
15.39	23.4165   	2.07114   
15.48	23.4147   	2.08346   
15.57	23.4129   	2.09591   
15.66	23.4111   	2.10836   
15.75	23.4093   	2.12095   
15.84	23.4075   	2.13354   
15.93	23.4057   	2.14628   
16.02	23.4038   	2.15901   
16.11	23.402    	2.17188   
16.2	23.4001   	2.18475   
16.29	23.3983   	2.19777   
16.38	23.3964   	2.21078   
16.47	23.3945   	2.22393   
16.56	23.3926   	2.23708   
16.65	23.3907   	2.25037   
16.74	23.3888   	2.26367   
16.83	23.3868   	2.2771    
16.92	23.3849   	2.29053   
17.01	23.383    	2.3041    
17.1	23.381    	2.31767   
17.19	23.379    	2.33138   
17.28	23.3771   	2.34509   
17.37	23.3751   	2.35894   
17.46	23.3731   	2.37279   
17.55	23.3711   	2.38678   
17.64	23.3691   	2.40077   
17.73	23.367    	2.41489   
17.82	23.365    	2.42902   
17.91	23.3629   	2.44329   
18	23.3609   	2.45755   
18.09	23.3588   	2.47196   
18.18	23.3567   	2.48636   
18.27	23.3547   	2.5009    
18.36	23.3526   	2.51545   
18.45	23.3504   	2.53013   
18.54	23.3483   	2.54481   
18.63	23.3462   	2.55963   
18.72	23.3441   	2.57445   
18.81	23.3419   	2.58941   
18.9	23.3398   	2.60436   
18.99	23.3376   	2.61946   
19.08	23.3354   	2.63456   
19.17	23.3332   	2.64979   
19.26	23.331    	2.66502   
19.35	23.3288   	2.68039   
19.44	23.3266   	2.69576   
19.53	23.3244   	2.71127   
19.62	23.3222   	2.72678   
19.71	23.3199   	2.74242   
19.8	23.3177   	2.75807   
19.89	23.3154   	2.77385   
19.98	23.3131   	2.78964   
20.07	23.3108   	2.80555   
20.16	23.3085   	2.82147   
20.25	23.3062   	2.83753   
20.34	23.3039   	2.85359   
20.43	23.3016   	2.86978   
20.52	23.2993   	2.88597   
20.61	23.2969   	2.9023    
20.7	23.2946   	2.91863   
20.79	23.2922   	2.9351    
20.88	23.2898   	2.95156   
20.97	23.2874   	2.96817   
21.06	23.2851   	2.98477   
21.15	23.2827   	3.00151   
21.24	23.2802   	3.01824   
21.33	23.2778   	3.03512   
21.42	23.2754   	3.05199   
21.51	23.2729   	3.069     
21.6	23.2705   	3.08601   
21.69	23.268    	3.10316   
21.78	23.2656   	3.1203    
21.87	23.2631   	3.13758   
21.96	23.2606   	3.15486   
22.05	23.2581   	3.17228   
22.14	23.2556   	3.18969   
22.23	23.2531   	3.20724   
22.32	23.2505   	3.22479   
22.41	23.248    	3.24248   
22.5	23.2455   	3.26016   
22.59	23.2429   	3.27798   
22.68	23.2403   	3.2958    
22.77	23.2377   	3.31376   
22.86	23.2352   	3.33171   
22.95	23.2326   	3.3498    
23.04	23.23     	3.36789   
23.13	23.2273   	3.38611   
23.22	23.2247   	3.40434   
23.31	23.2221   	3.42269   
23.4	23.2194   	3.44105   
23.49	23.2168   	3.45954   
23.58	23.2141   	3.47803   
23.67	23.2114   	3.49665   
23.76	23.2088   	3.51528   
23.85	23.2061   	3.53404   
23.94	23.2034   	3.55279   
24.03	23.2006   	3.57168   
24.12	23.1979   	3.59057   
24.21	23.1952   	3.6096    
24.3	23.1925   	3.62862   
24.39	23.1897   	3.64778   
24.48	23.1869   	3.66693   
24.57	23.1842   	3.68622   
24.66	23.1814   	3.70551   
24.75	23.1786   	3.72493   
24.84	23.1758   	3.74436   
24.93	23.173    	3.76391   
25.02	23.1702   	3.78346   
25.11	23.1674   	3.80315   
25.2	23.1645   	3.82284   
25.29	23.1617   	3.84265   
25.38	23.1588   	3.86247   
25.47	23.156    	3.88242   
25.56	23.1531   	3.90237   
25.65	23.1502   	3.92245   
25.74	23.1473   	3.94253   
25.83	23.1444   	3.96274   
25.92	23.1415   	3.98296   
26.01	23.1386   	4.0033    
26.1	23.1356   	4.02364   
26.19	23.1327   	4.04412   
26.28	23.1298   	4.06459   
26.37	23.1268   	4.0852    
26.46	23.1238   	4.1058    
26.55	23.1208   	4.12654   
26.64	23.1179   	4.14727   
26.73	23.1149   	4.16814   
26.82	23.1119   	4.189     
26.91	23.1088   	4.21      
27	23.1058   	4.23099   
27.09	23.1028   	4.25212   
27.18	23.0997   	4.27325   
27.27	23.0967   	4.2945    
27.36	23.0936   	4.31576   
27.45	23.0906   	4.33714   
27.54	23.0875   	4.35852   
27.63	23.0844   	4.38004   
27.72	23.0813   	4.40155   
27.81	23.0782   	4.4232    
27.9	23.0751   	4.44484   
27.99	23.0719   	4.46661   
28.08	23.0688   	4.48838   
28.17	23.0657   	4.51028   
28.26	23.0625   	4.53218   
28.35	23.0593   	4.55421   
28.44	23.0562   	4.57624   
28.53	23.053    	4.5984    
28.62	23.0498   	4.62055   
28.71	23.0466   	4.64284   
28.8	23.0434   	4.66512   
28.89	23.0402   	4.68753   
28.98	23.0369   	4.70995   
29.07	23.0337   	4.73249   
29.16	23.0305   	4.75503   
29.25	23.0272   	4.77769   
29.34	23.0239   	4.80036   
29.43	23.0207   	4.82315   
29.52	23.0174   	4.84595   
29.61	23.0141   	4.86887   
29.7	23.0108   	4.89179   
29.79	23.0075   	4.91484   
29.88	23.0042   	4.93789   
29.97	23.0008   	4.96106   
30.06	22.9975   	4.98423   
30.15	22.9941   	5.00753   
30.24	22.9908   	5.03083   
30.33	22.9874   	5.05426   
30.42	22.984    	5.07769   
30.51	22.9807   	5.10124   
30.6	22.9773   	5.12479   
30.69	22.9739   	5.14847   
30.78	22.9705   	5.17214   
30.87	22.967    	5.19594   
30.96	22.9636   	5.21975   
31.05	22.9602   	5.24367   
31.14	22.9567   	5.2676    
31.23	22.9533   	5.29165   
31.32	22.9498   	5.31571   
31.41	22.9463   	5.33988   
31.5	22.9429   	5.36406   
31.59	22.9394   	5.38836   
31.68	22.9359   	5.41266   
31.77	22.9324   	5.43709   
31.86	22.9288   	5.46151   
31.95	22.9253   	5.48606   
32.04	22.9218   	5.51061   
32.13	22.9182   	5.53528   
32.22	22.9147   	5.55995   
32.31	22.9111   	5.58475   
32.4	22.9075   	5.60954   
32.49	22.904    	5.63446   
32.58	22.9004   	5.65938   
32.67	22.8968   	5.68442   
32.76	22.8932   	5.70946   
32.85	22.8896   	5.73463   
32.94	22.8859   	5.75979   
33.03	22.8823   	5.78508   
33.12	22.8787   	5.81036   
33.21	22.875    	5.83577   
33.3	22.8714   	5.86118   
33.39	22.8677   	5.88671   
33.48	22.864    	5.91224   
33.57	22.8603   	5.93789   
33.66	22.8566   	5.96354   
33.75	22.8529   	5.98931   
33.84	22.8492   	6.01509   
33.93	22.8455   	6.04098   
34.02	22.8418   	6.06687   
34.11	22.838    	6.09289   
34.2	22.8343   	6.1189    
34.29	22.8305   	6.14504   
34.38	22.8268   	6.17117   
34.47	22.823    	6.19743   
34.56	22.8192   	6.22369   
34.65	22.8154   	6.25006   
34.74	22.8116   	6.27644   
34.83	22.8078   	6.30293   
34.92	22.804    	6.32943   
35.01	22.8002   	6.35604   
35.1	22.7964   	6.38266   
35.19	22.7925   	6.40939   
35.28	22.7887   	6.43613   
35.37	22.7848   	6.46298   
35.46	22.7809   	6.48983   
35.55	22.7771   	6.5168    
35.64	22.7732   	6.54377   
35.73	22.7693   	6.57086   
35.82	22.7654   	6.59795   
35.91	22.7615   	6.62516   
36	22.7576   	6.65237   
36.09	22.7536   	6.6797    
36.18	22.7497   	6.70702   
36.27	22.7458   	6.73447   
36.36	22.7418   	6.76191   
36.45	22.7378   	6.78947   
36.54	22.7339   	6.81703   
36.63	22.7299   	6.84471   
36.72	22.7259   	6.87239   
36.81	22.7219   	6.90019   
36.9	22.7179   	6.92798   
36.99	22.7139   	6.95589   
37.08	22.7099   	6.9838    
37.17	22.7059   	7.01183   
37.26	22.7018   	7.03986   
37.35	22.6978   	7.068     
37.44	22.6937   	7.09615   
37.53	22.6897   	7.12441   
37.62	22.6856   	7.15267   
37.71	22.6815   	7.18104   
37.8	22.6774   	7.20942   
37.89	22.6733   	7.23791   
37.98	22.6693   	7.2664    
38.07	22.6651   	7.295     
38.16	22.661    	7.32361   
38.25	22.6569   	7.35233   
38.34	22.6528   	7.38105   
38.43	22.6486   	7.40988   
38.52	22.6445   	7.43872   
38.61	22.6403   	7.46766   
38.7	22.6361   	7.49661   
38.79	22.632    	7.52567   
38.88	22.6278   	7.55474   
38.97	22.6236   	7.58391   
39.06	22.6194   	7.61309   
39.15	22.6152   	7.64237   
39.24	22.611    	7.67166   
39.33	22.6067   	7.70106   
39.42	22.6025   	7.73047   
39.51	22.5983   	7.75998   
39.6	22.594    	7.78949   
39.69	22.5898   	7.81912   
39.78	22.5855   	7.84875   
39.87	22.5812   	7.87848   
39.96	22.5769   	7.90822   
40.05	22.5726   	7.93807   
40.14	22.5684   	7.96792   
40.23	22.564    	7.99788   
40.32	22.5597   	8.02784   
40.41	22.5554   	8.05792   
40.5	22.5511   	8.08799   
40.59	22.5467   	8.11817   
40.68	22.5424   	8.14836   
40.77	22.538    	8.17865   
40.86	22.5337   	8.20894   
40.95	22.5293   	8.23935   
41.04	22.5249   	8.26975   
41.13	22.5206   	8.30027   
41.22	22.5162   	8.33078   
41.31	22.5118   	8.3614    
41.4	22.5074   	8.39203   
41.49	22.5029   	8.42276   
41.58	22.4985   	8.45349   
41.67	22.4941   	8.48433   
41.76	22.4896   	8.51518   
41.85	22.4852   	8.54613   
41.94	22.4807   	8.57708   
42.03	22.4763   	8.60814   
42.12	22.4718   	8.63919   
42.21	22.4673   	8.67036   
42.3	22.4628   	8.70153   
42.39	22.4583   	8.7328    
42.48	22.4538   	8.76408   
42.57	22.4493   	8.79546   
42.66	22.4448   	8.82684   
42.75	22.4403   	8.85833   
42.84	22.4358   	8.88982   
42.93	22.4312   	8.92142   
43.02	22.4267   	8.95301   
43.11	22.4221   	8.98472   
43.2	22.4176   	9.01642   
43.29	22.413    	9.04823   
43.38	22.4084   	9.08004   
43.47	22.4038   	9.11195   
43.56	22.3992   	9.14387   
43.65	22.3946   	9.17589   
43.74	22.39     	9.20791   
43.83	22.3854   	9.24004   
43.92	22.3808   	9.27216   
44.01	22.3761   	9.30439   
44.1	22.3715   	9.33662   
44.19	22.3668   	9.36896   
44.28	22.3622   	9.4013    
44.37	22.3575   	9.43374   
44.46	22.3529   	9.46618   
44.55	22.3482   	9.49872   
44.64	22.3435   	9.53126   
44.73	22.3388   	9.56391   
44.82	22.3341   	9.59656   
44.91	22.3294   	9.62931   
45	22.3247   	9.66206   
45.09	22.32     	9.69492   
45.18	22.3152   	9.72777   
45.27	22.3105   	9.76073   
45.36	22.3058   	9.79368   
45.45	22.301    	9.82674   
45.54	22.2963   	9.8598    
45.63	22.2915   	9.89296   
45.72	22.2867   	9.92612   
45.81	22.2819   	9.95939   
45.9	22.2771   	9.99265   
45.99	22.2723   	10.026    
46.08	22.2675   	10.0594   
46.17	22.2627   	10.0928   
46.26	22.2579   	10.1263   
46.35	22.2531   	10.1599   
46.44	22.2483   	10.1934   
46.53	22.2434   	10.2271   
46.62	22.2386   	10.2608   
46.71	22.2337   	10.2945   
46.8	22.2289   	10.3283   
46.89	22.224    	10.3622   
46.98	22.2191   	10.396    
47.07	22.2142   	10.43     
47.16	22.2094   	10.464    
47.25	22.2045   	10.498    
47.34	22.1996   	10.5321   
47.43	22.1946   	10.5663   
47.52	22.1897   	10.6004   
47.61	22.1848   	10.6347   
47.7	22.1799   	10.669    
47.79	22.1749   	10.7033   
47.88	22.17     	10.7377   
47.97	22.165    	10.7721   
48.06	22.1601   	10.8066   
48.15	22.1551   	10.8412   
48.24	22.1501   	10.8757   
48.33	22.1452   	10.9104   
48.42	22.1402   	10.945    
48.51	22.1352   	10.9798   
48.6	22.1302   	11.0145   
48.69	22.1252   	11.0494   
48.78	22.1202   	11.0842   
48.87	22.1151   	11.1191   
48.96	22.1101   	11.1541   
49.05	22.1051   	11.1891   
49.14	22.1      	11.2242   
49.23	22.095    	11.2593   
49.32	22.0899   	11.2944   
49.41	22.0849   	11.3297   
49.5	22.0798   	11.3649   
49.59	22.0747   	11.4002   
49.68	22.0696   	11.4355   
49.77	22.0645   	11.4709   
49.86	22.0594   	11.5064   
49.95	22.0543   	11.5419   
50.04	22.0492   	11.5774   
50.13	22.0441   	11.613    
50.22	22.039    	11.6486   
50.31	22.0338   	11.6843   
50.4	22.0287   	11.72     
50.49	22.0236   	11.7558   
50.58	22.0184   	11.7916   
50.67	22.0133   	11.8275   
50.76	22.0081   	11.8633   
50.85	22.0029   	11.8993   
50.94	21.9977   	11.9353   
51.03	21.9926   	11.9714   
51.12	21.9874   	12.0074   
51.21	21.9822   	12.0436   
51.3	21.977    	12.0797   
51.39	21.9718   	12.116    
51.48	21.9665   	12.1522   
51.57	21.9613   	12.1886   
51.66	21.9561   	12.2249   
51.75	21.9508   	12.2613   
51.84	21.9456   	12.2978   
51.93	21.9404   	12.3343   
52.02	21.9351   	12.3708   
52.11	21.9298   	12.4074   
52.2	21.9246   	12.444    
52.29	21.9193   	12.4807   
52.38	21.914    	12.5174   
52.47	21.9087   	12.5542   
52.56	21.9034   	12.591    
52.65	21.8981   	12.6279   
52.74	21.8928   	12.6648   
52.83	21.8875   	12.7017   
52.92	21.8822   	12.7387   
53.01	21.8769   	12.7758   
53.1	21.8715   	12.8128   
53.19	21.8662   	12.85     
53.28	21.8609   	12.8871   
53.37	21.8555   	12.9243   
53.46	21.8501   	12.9615   
53.55	21.8448   	12.9989   
53.64	21.8394   	13.0362   
53.73	21.834    	13.0736   
53.82	21.8286   	13.111    
53.91	21.8233   	13.1485   
54	21.8179   	13.186    
54.09	21.8125   	13.2235   
54.18	21.8071   	13.2611   
54.27	21.8016   	13.2988   
54.36	21.7962   	13.3364   
54.45	21.7908   	13.3742   
54.54	21.7854   	13.4119   
54.63	21.7799   	13.4497   
54.72	21.7745   	13.4876   
54.81	21.769    	13.5255   
54.9	21.7636   	13.5634   
54.99	21.7581   	13.6014   
55.08	21.7527   	13.6394   
55.17	21.7472   	13.6775   
55.26	21.7417   	13.7155   
55.35	21.7362   	13.7537   
55.44	21.7307   	13.7919   
55.53	21.7252   	13.8301   
55.62	21.7197   	13.8683   
55.71	21.7142   	13.9067   
55.8	21.7087   	13.945    
55.89	21.7032   	13.9834   
55.98	21.6976   	14.0218   
56.07	21.6921   	14.0603   
56.16	21.6866   	14.0988   
56.25	21.681    	14.1374   
56.34	21.6755   	14.1759   
56.43	21.6699   	14.2146   
56.52	21.6644   	14.2533   
56.61	21.6588   	14.292    
56.7	21.6532   	14.3307   
56.79	21.6476   	14.3695   
56.88	21.6421   	14.4083   
56.97	21.6365   	14.4472   
57.06	21.6309   	14.4861   
57.15	21.6253   	14.5251   
57.24	21.6197   	14.5641   
57.33	21.614    	14.6031   
57.42	21.6084   	14.6422   
57.51	21.6028   	14.6813   
57.6	21.5972   	14.7204   
57.69	21.5915   	14.7596   
57.78	21.5859   	14.7988   
57.87	21.5802   	14.8381   
57.96	21.5746   	14.8774   
58.05	21.5689   	14.9168   
58.14	21.5633   	14.9561   
58.23	21.5576   	14.9956   
58.32	21.5519   	15.035    
58.41	21.5462   	15.0745   
58.5	21.5406   	15.1141   
58.59	21.5349   	15.1536   
58.68	21.5292   	15.1932   
58.77	21.5235   	15.2329   
58.86	21.5178   	15.2726   
58.95	21.512    	15.3123   
59.04	21.5063   	15.3521   
59.13	21.5006   	15.3919   
59.22	21.4949   	15.4317   
59.31	21.4891   	15.4716   
59.4	21.4834   	15.5115   
59.49	21.4776   	15.5514   
59.58	21.4719   	15.5914   
59.67	21.4661   	15.6315   
59.76	21.4604   	15.6715   
59.85	21.4546   	15.7116   
59.94	21.4488   	15.7517   
60.03	21.4431   	15.7919   
60.12	21.4373   	15.8321   
60.21	21.4315   	15.8724   
60.3	21.4257   	15.9126   
60.39	21.4199   	15.9529   
60.48	21.4141   	15.9933   
60.57	21.4083   	16.0337   
60.66	21.4025   	16.0741   
60.75	21.3967   	16.1146   
60.84	21.3908   	16.155    
60.93	21.385    	16.1956   
61.02	21.3792   	16.2361   
61.11	21.3733   	16.2767   
61.2	21.3675   	16.3174   
61.29	21.3616   	16.358    
61.38	21.3558   	16.3987   
61.47	21.3499   	16.4395   
61.56	21.3441   	16.4802   
61.65	21.3382   	16.5211   
61.74	21.3323   	16.5619   
61.83	21.3264   	16.6028   
61.92	21.3206   	16.6437   
62.01	21.3147   	16.6847   
62.1	21.3088   	16.7256   
62.19	21.3029   	16.7666   
62.28	21.297    	16.8077   
62.37	21.2911   	16.8488   
62.46	21.2851   	16.8899   
62.55	21.2792   	16.931    
62.64	21.2733   	16.9722   
62.73	21.2674   	17.0134   
62.82	21.2614   	17.0547   
62.91	21.2555   	17.096    
63	21.2496   	17.1373   
63.09	21.2436   	17.1787   
63.18	21.2377   	17.22     
63.27	21.2317   	17.2615   
63.36	21.2257   	17.3029   
63.45	21.2198   	17.3444   
63.54	21.2138   	17.3859   
